vanadium                                                                        
BANK 1 5600 560 CONST 2000 5 0 0 STD                                            
  643440  641970  640660  639350  638050  636740  635440  634140  632850  631560
  630270  628980  627700  626430  625150  623880  622610  621350  620080  618820
  617560  616310  615060  613810  612570  611320  610080  608850  607610  606380
  605150  603930  602710  601490  600270  599060  597850  596640  595430  594230
  593030  591830  590640  589450  588260  587070  585890  584700  583530  582350
  581180  580010  578850  577680  576520  575350  574190  573040  571890  570740
  569590  568440  567300  566160  565030  563890  562750  561620  560500  559370
  558250  557130  556010  554900  553780  552670  551560  550450  549350  548250
  547150  546050  544950  543860  542770  541690  540600  539510  538430  537350
  536280  535200  534130  533060  531990  530920  529860  528790  527730  526680
  525620  523530  521950  520760  519790  518650  517940  517940  516820  515560
  514490  514490  513580  512360  511010  509820  508500  507380  507380  506330
  505000  503610  503610  502830  501510  500150  499880  498760  495950  495950
  495950  495410  492690  492150  491050  488310  488310  488310  487780  485130
  484600  484600  484600  482110  481110  480900  479880  478640  477870  477870
  476630  475400  474410  474410  472390  470880  470880  469540  468260  467270
  467270  466290  465080  463890  463890  463100  461800  460590  459370  458640
  458640  457550  456280  454910  453620  452160  451260  451260  449920  448530
  447380  447380  446160  444670  443240  443240  441510  439210  439210  439210
  438120  435400  435400  434600  433250  431870  431590  430530  427870  427870
  427870  427340  424670  424140  424140  424140  421450  420370  420140  419010
  417690  416880  416880  414420  413440  413440  413440  411530  410100  410100
  408820  407590  406620  406620  405650  404490  403400  402340  401910  401680
  400520  399340  398190  397080  397080  396350  395120  393850  392690  392000
  392000  390860  389690  388740  388740  387780  386730  385900  384690  383650
  382910  382910  382050  381030  380080  380080  379390  378280  377310  377110
  376300  374270  374270  374270  373870  371840  371440  370990  369870  368930
  368560  368150  366110  365700  365700  365700  363890  363160  362990  362110
  361210  360660  360660  359800  358960  358300  358300  356670  355450  355450
  354570  353610  352790  352790  352120  351220  350230  350230  349680  348760
  347830  346930  346390  346390  345560  344690  343800  342960  342790  342460
  341630  340740  339880  339210  339210  338620  337860  337060  337060  336040
  334680  334680  334680  334030  332420  332420  331880  331030  330340  330200
  329620  328180  328180  328180  327890  326430  326140  326140  326140  324600
  323990  323840  323100  322380  321960  321960  320550  319990  319990  319990
  318900  318090  318090  317340  316620  316050  316050  315500  314820  314160
  314160  313770  313100  312420  311770  311130  310520  310520  310160  309530
  308840  308200  307820  307820  307130  306530  306110  306110  305510  304830
  304270  304270  303580  302670  302670  302180  301580  300970  300970  300640
  300090  299600  299500  299050  297920  297920  297920  297710  296660  296450
  296260  295780  295340  295170  294980  294000  293810  293810  293810  293030
  292720  292650  292300  291860  291590  291590  291250  290840  290470  290470
  289810  289320  289320  289000  288590  288220  288220  287890  287490  287100
  287100  286910  286560  286090  285730  285530  285530  285240  284940  284610
  284250  284180  284040  283690  283430  283110  282820  282820  282590  282280
  281940  281940  281740  281400  280980  280900  280680  280120  280120  279860
  279460  279200  279150  278890  278230  278230  278230  278120  277540  277430
  277430  277430  277010  276840  276810  276650  276360  276170  276170  275730
  275560  275560  275560  275130  274800  274800  274590  274360  274150  274150
  274020  273820  273560  273560  273430  273220  273010  272790  272580  272390
  272390  272260  272050  271860  271820  271710  271450  271350  271120  270860
  270860  270690  270460  270170  270170  269950  269660  269660  269520  269310
  269040  269040  268900  268670  268480  268440  268210  267640  267640  267640
  267530  266990  266880  266880  266880  266540  266410  266350  266030  265970
  265970  265970  265600  265450  265450  265450  265160  264940  264940  264900
  264770  264620  264620  264520  264380  264210  264120  263980  263840  263840
  263810  263740  263630  263630  263590  263530  263490  263380  263300  263300
  263240  263130  262980  262800  262760  262740  262700  262650  262560  262470
  262470  262380  262280  262180  262180  262180  262160  262080  262060  262030
  261970  261970  261900  261780  261680  261660  261620  261520  261460  261430
  261410  261280  261260  261260  261260  261140  261090  261080  261060  260940
  260860  260860  260800  260780  260780  260780  260690  260630  260630  260640
  260580  260490  260490  260510  260490  260410  260410  260410  260400  260370
  260360  260360  260370  260370  260360  260340  260280  260270  260280  260290
  260300  260300  260280  260280  260290  260300  260300  260300  260320  260340
  260340  260320  260310  260320  260320  260340  260370  260430  260440  260460
  260520  260520  260520  260540  260660  260680  260680  260680  260720  260740
  260760  260830  260850  260850  260850  260950  260990  260990  260990  261060
  261120  261120  261130  261140  261150  261150  261160  261180  261190  261190
  261250  261340  261340  261410  261490  261550  261550  261580  261620  261690
  261750  261790  261790  261840  261910  261970  261970  262040  262130  262220
  262300  262380  262450  262450  262500  262580  262680  262680  262740  262820
  262890  262900  262930  262990  262990  262990  263020  263140  263170  263180
  263190  263250  263270  263290  263400  263420  263420  263420  263490  263520
  263520  263520  263510  263510  263510  263570  263600  263600  263600  263700
  263770  263770  263800  263870  263940  263940  263920  263920  263970  263970
  263940  263890  263900  263860  263850  263900  263900  263920  263960  263980
  263990  263980  263950  263960  263990  264040  264040  264030  264010  263980
  263980  263970  263950  263950  263910  263900  263950  263950  263940  263930
  263940  263940  263960  264000  264000  264000  264000  264000  264000  264000
  264000  264040  264050  264060  264100  264110  264110  264110  264210  264250
  264250  264250  264320  264370  264370  264420  264450  264470  264470  264480
  264490  264490  264490  264500  264520  264520  264510  264520  264570  264570
  264540  264510  264580  264600  264590  264550  264630  264610  264550  264550
  264540  264510  264440  264480  264430  264350  264350  264320  264250  264150
  264150  264170  264180  264050  264030  263990  263900  263900  263900  263880
  263810  263790  263780  263770  263730  263710  263690  263620  263600  263600
  263600  263490  263450  263450  263450  263280  263160  263160  263090  263020
  262960  262960  262750  262590  262590  262530  262450  262370  262370  262270
  262150  262020  262020  261970  261880  261770  261690  261640  261640  261520
  261400  261280  261170  261150  261110  261010  260940  260840  260750  260750
  260670  260550  260400  260400  260350  260260  260130  260030  259930  259800
  259800  259770  259690  259530  259500  259470  259410  259220  259150  259100
  258850  258800  258800  258800  258490  258360  258290  257920  257850  257850
  257850  257510  257380  257380  257380  257040  256790  256790  256530  256320
  256180  256180  256000  255820  255680  255680  255430  255100  255100  254960
  254790  254630  254630  254520  254340  254110  254070  253990  253780  253620
  253450  253320  253320  253150  252950  252790  252560  252470  252450  252320
  252150  251980  251820  251820  251690  251500  251400  251380  251250  250940
  250940  250940  250880  250590  250530  250450  250250  250220  250210  250160
  249900  249850  249850  249850  249640  249550  249550  249550  249400  249290
  249290  249290  249210  249100  249100  249070  249040  249040  249040  248980
  248890  248890  248900  248850  248720  248720  248700  248660  248620  248580
  248560  248560  248550  248530  248500  248480  248470  248440  248360  248340
  248300  248250  248250  248210  248150  248070  248070  248050  247990  247850
  247820  247790  247710  247710  247700  247650  247480  247450  247440  247430
  247260  247190  247140  246890  246840  246840  246840  246600  246500  246490
  246420  246240  246110  246110  245870  245780  245780  245780  245560  245390
  245390  245120  244930  244820  244820  244650  244470  244360  244360  244100
  243760  243760  243520  243280  243120  243120  242940  242650  242440  242400
  242290  242020  241750  241470  241240  241240  241050  240790  240500  240230
  240120  240060  239770  239520  239260  238990  238990  238840  238570  238250
  238190  237940  237310  237310  237310  237170  236500  236360  236230  235920
  235580  235450  235310  234630  234490  234490  234490  233820  233550  233550
  233550  232990  232570  232570  232220  231900  231650  231650  231120  230720
  230720  230720  230350  229850  229850  229600  229300  229000  229000  228830
  228550  228220  228160  228050  227760  227400  227070  226750  226420  226350
  226240  225970  225660  225350  225120  225120  224820  224500  224250  224250
  224060  223750  223440  223380  223140  222550  222550  222370  222060  221770
  221710  221570  221230  220890  220760  220630  220000  219870  219870  219870
  219250  219000  219000  219000  218500  218130  218130  217520  217270  217270
  217270  216800  216450  216450  216450  216140  215730  215730  215500  215230
  215010  215010  214860  214610  214330  214080  213830  213580  213580  213430
  213200  212970  212930  212840  212630  212380  212140  211950  211950  211760
  211540  211340  211100  211010  210970  210750  210500  210250  210030  210030
  209870  209630  209460  209430  209320  209040  208860  208790  208700  208220
  208130  208030  207780  207590  207520  207420  206950  206850  206850  206850
  206390  206210  206210  206210  205870  205610  205610  205430  205230  205060
  205060  204740  204500  204500  204500  204250  203920  203920  203760  203570
  203410  203410  203280  203060  202890  202850  202760  202530  202340  202130
  201900  201730  201690  201600  201390  201180  201100  201060  200830  200640
  200420  200150  200150  200010  199780  199500  199450  199290  198890  198890
  198770  198570  198340  198290  198210  198020  197750  197640  197550  197100
  197010  197010  197010  196540  196350  196350  196350  196000  195730  195730
  195220  195020  195020  195020  194610  194310  194310  194310  194010  193610
  193610  193390  193120  192840  192840  192660  192380  192110  192060  191850
  191340  191340  191170  190890  190610  190560  190450  190170  189930  189610
  189320  189320  189130  188870  188580  188580  188400  188090  187810  187520
  187220  186930  186930  186750  186450  186180  186130  186020  185730  185440
  185320  185210  184640  184530  184530  184530  183990  183780  183720  183450
  183160  182990  182990  182430  182200  182200  182200  181730  181370  181370
  181080  180780  180540  180540  180100  179770  179770  179770  179450  179020
  179020  178790  178490  178200  178200  178030  177750  177440  177380  177260
  176970  176690  176390  176070  175780  175720  175600  175310  175010  174890
  174830  174540  174220  173910  173620  173620  173440  173140  172810  172750
  172640  172350  172010  171690  171390  171030  170960  170840  170530  170150
  170000  169880  169260  169140  169140  169140  168520  168270  168270  168270
  167860  167550  167550  167090  166910  166910  166910  166640  166430  166430
  166430  166190  165860  165860  165780  165610  165330  165330  165270  165140
  164880  164830  164670  164260  164260  164190  164050  163810  163760  163710
  163590  163330  163140  163030  163030  162810  162600  162460  162460  162310
  162090  161940  161730  161520  161360  161360  161230  161020  160850  160820
  160730  160520  160350  160280  160210  159850  159780  159780  159780  159360
  159190  159150  158960  158760  158640  158640  158280  158130  158130  158130
  157840  157620  157620  157620  157410  157140  157140  156970  156770  156610
  156610  156380  156070  156070  155880  155680  155530  155530  155390  155180
  155060  155040  154950  154720  154630  154450  154260  154260  154210  154080
  153840  153800  153790  153740  153490  153390  153250  152990  152990  152940
  152820  152550  152490  152430  152270  151970  151720  151500  151230  151180
  151080  150820  150550  150440  150390  150130  149870  149710  149710  149160
  148940  148940  148940  148450  148080  148080  147520  147300  147300  147300
  146860  146530  146530  146530  146190  145740  145740  145520  145250  144960
  144960  144800  144520  144250  144190  143970  143420  143420  143260  143000
  142720  142670  142570  142310  142030  141920  141870  141610  141340  141080
  140830  140830  140660  140380  140110  139860  139600  139310  139310  139160
  138900  138640  138590  138470  138180  137940  137840  137730  137160  137050
  137050  137050  136510  136290  136240  135960  135700  135540  135540  135010
  134800  134800  134800  134390  134090  134090  134090  133780  133370  133370
  133150  132880  132610  132610  132280  131840  131840  131840  131630  131100
  131100  130950  130700  130420  130370  130260  130000  129720  129460  129270
  129270  129060  128800  128530  128290  128190  128140  127860  127590  127320
  127050  127050  126890  126620  126360  126310  126200  125930  125660  125550
  125440  124920  124810  124720  124510  124250  124140  124090  123850  123590
  123430  123430  122900  122690  122690  122690  122280  121970  121970  121460
  121250  121250  121250  120850  120550  120550  120550  120250  119840  119840
  119640  119390  119130  119130  118970  118700  118430  118380  118170  117640
  117640  117480  117210  116940  116880  116770  116500  116230  116120  116070
  115790  115550  115290  114990  114990  114820  114540  114240  113950  113780
  113780  113460  113180  112930  112600  112540  112430  112170  111880  111760
  111660  111160  111060  111060  111060  110630  110460  110400  110130  109960
  109870  109870  109460  109300  109300  109300  109000  108770  108770  108770
  108570  108300  108300  108200  108030  107790  107790  107570  107270  107270
  107270  107120  106760  106760  106680  106530  106280  106230  106190  106080
  105870  105790  105760  105640  105440  105270  105170  104970  104890  104860
  104740  104540  104360  104230  104230  104110  103940  103810  103790  103710
  103500  103340  103270  103210  102880  102820  102740  102550  102410  102360
  102320  102150  102000  101910  101910  101600  101470  101470  101470  101210
  101020  101020  101020  100830  100570  100570  100320  100140  100140  100140
   99947   99689   99689   99568   99420   99279   99279   99183   99028   98885
   98857   98789   98618   98491   98340   98184   98068   98045   97980   97818
   97709   97666   97633   97469   97376   97259   97080   97080   97042   96957
   96786   96721   96698   96698   96522   96436   96378   96198   96162   96143
   96095   95907   95832   95814   95727   95566   95459   95459   95120   94984
   94951   94786   94607   94498   94498   94137   93993   93993   93993   93700
   93480   93480   93480   93249   92941   92941   92789   92596   92397   92397
   92154   91829   91829   91829   91690   91341   91341   91220   91021   90833
   90796   90721   90534   90325   90242   90206   90028   89839   89652   89472
   89256   89169   89136   88969   88782   88594   88413   88413   88299   88114
   87943   87909   87829   87630   87449   87376   87309   86974   86907   86832
   86644   86475   86408   86370   86182   86007   85905   85905   85556   85416
   85416   85416   85118   84894   84894   84894   84676   84385   84385   84099
   83884   83884   83884   83665   83373   83373   83373   83230   82871   82871
   82779   82621   82439   82403   82333   82159   81983   81811   81643   81477
   81444   81378   81213   81043   80975   80941   80770   80595   80428   80274
   80274   80169   79996   79835   79803   79738   79574   79423   79259   79086
   78918   78884   78815   78642   78481   78416   78381   78209   78053   77963
   77963   77628   77494   77494   77494   77224   77022   77022   76857   76700
   76579   76579   76306   76101   76101   76101   75899   75630   75630   75499
   75333   75164   75164   74973   74718   74718   74718   74599   74300   74300
   74200   74038   73897   73869   73804   73640   73463   73392   73365   73228
   73086   72942   72801   72645   72582   72552   72402   72242   72144   72144
   71990   71834   71678   71530   71501   71433   71263   71109   71048   70987
   70681   70620   70555   70391   70230   70166   70136   69983   69832   69742
   69742   69433   69309   69309   69309   69063   68879   68879   68879   68698
   68457   68457   68208   68021   68021   68021   67854   67632   67632   67632
   67523   67249   67249   67168   67027   66866   66834   66781   66650   66510
   66454   66398   66121   66065   66000   65838   65676   65611   65586   65464
   65326   65181   65027   65027   64940   64795   64648   64619   64560   64412
   64278   64141   64003   63875   63849   63787   63632   63504   63453   63424
   63276   63149   63076   63076   62784   62667   62667   62667   62450   62287
   62287   62145   62008   61902   61902   61668   61493   61493   61493   61341
   61139   61139   61139   61033   60767   60767   60691   60561   60415   60386
   60285   60034   60034   59955   59825   59700   59675   59626   59505   59376
   59324   59299   59175   59036   58908   58799   58799   58709   58562   58432
   58309   58237   58237   58116   57994   57871   57745   57720   57661   57514
   57387   57336   57308   57166   57040   56913   56781   56656   56606   56580
   56453   56327   56252   56252   56004   55905   55905   55905   55709   55562
   55562   55562   55422   55236   55236   55059   54926   54926   54926   54788
   54603   54603   54603   54508   54272   54272   54210   54102   53980   53955
   53910   53798   53676   53627   53582   53358   53313   53268   53154   53022
   52969   52947   52837   52717   52644   52644   52536   52418   52300   52208
   52189   52138   52011   51902   51787   51673   51575   51555   51517   51422
   51330   51293   51267   51137   51034   50976   50976   50775   50694   50694
   50694   50537   50419   50419   50305   50202   50125   50125   49964   49844
   49844   49844   49713   49538   49538   49538   49455   49246   49246   49192
   49099   48996   48975   48896   48700   48700   48646   48552   48449   48428
   48393   48306   48213   48176   48158   48071   47963   47862   47777   47777
   47715   47616   47537   47439   47378   47378   47294   47197   47096   47006
   46988   46951   46858   46776   46743   46723   46621   46539   46492   46492
   46317   46247   46225   46116   46020   45965   45965   45877   45792   45726
   45726   45585   45480   45480   45480   45375   45236   45236   45109   45014
   45014   45014   44917   44787   44787   44787   44722   44560   44560   44514
   44436   44356   44340   44306   44221   44134   44099   44067   43909   43877
   43842   43754   43663   43626   43610   43528   43440   43386   43386   43305
   43221   43135   43053   43036   43005   42927   42842   42754   42683   42683
   42625   42549   42470   42397   42368   42352   42270   42200   42159   42159
   42011   41952   41952   41952   41836   41749   41749   41673   41600   41543
   41543   41420   41328   41328   41328   41241   41125   41125   41125   41063
   40908   40908   40857   40771   40687   40670   40609   40457   40457   40457
   40428   40283   40254   40224   40150   40071   40039   40025   39952   39877
   39801   39725   39725   39674   39591   39519   39451   39411   39411   39327
   39246   39166   39084   39067   39036   38960   38882   38851   38836   38762
   38682   38633   38633   38486   38427   38412   38334   38265   38225   38225
   38149   38073   38011   38011   37896   37809   37809   37809   37716   37591
   37591   37591   37531   37380   37380   37294   37179   37179   37179   37117
   36962   36962   36917   36841   36760   36744   36717   36648   36569   36537
   36521   36443   36374   36306   36232   36159   36130   36114   36037   35961
   35916   35916   35838   35765   35693   35611   35594   35562   35481   35410
   35334   35271   35271   35211   35137   35063   34992   34964   34949   34871
   34799   34757   34757   34612   34554   34554   34554   34440   34355   34355
   34289   34221   34166   34166   34049   33962   33962   33962   33873   33754
   33754   33754   33693   33542   33542   33497   33423   33356   33343   33282
   33128   33128   33128   33097   32943   32912   32882   32807   32725   32692
   32676   32596   32519   32473   32473   32393   32313   32231   32147   32067
   32019   32019   31941   31859   31775   31695   31679   31648   31571   31486
   31452   31437   31360   31274   31221   31221   31076   31018   31002   30924
   30846   30800   30800   30721   30645   30584   30584   30454   30356   30356
   30356   30255   30120   30120   30120   30056   29895   29895   29797   29666
   29666   29666   29605   29454   29454   29454   29423   29269   29238   29209
   29137   29062   29032   29018   28946   28875   28806   28740   28661   28629
   28619   28568   28491   28440   28440   28394   28330   28265   28236   28230
   28197   28115   28093   28084   28069   27993   27953   27905   27831   27815
   27809   27794   27721   27686   27671   27671   27602   27556   27530   27530
   27453   27395   27395   27395   27324   27229   27229   27150   27091   27091
   27091   27029   26947   26947   26947   26909   26815   26815   26793   26752
   26690   26678   26642   26552   26552   26552   26532   26429   26409   26395
   26359   26298   26274   26266   26229   26170   26132   26132   26098   26047
   25990   25952   25900   25866   25866   25833   25782   25731   25731   25699
   25651   25590   25558   25545   25534   25480   25439   25417   25417   25331
   25296   25287   25242   25208   25189   25189   25139   25101   25077   25077
   25007   24955   24955   24955   24909   24847   24847   24847   24817   24742
   24742   24702   24648   24648   24648   24623   24559   24559   24559   24549
   24496   24486   24478   24457   24421   24407   24402   24376   24346   24315
   24286   24261   24251   24247   24224   24205   24194   24194   24178   24156
   24132   24114   24111   24101   24075   24055   24047   24042   24018   23996
   23978   23965   23944   23935   23934   23927   23907   23892   23892   23883
   23870   23856   23856   23841   23830   23830   23830   23820   23807   23807
   23806   23799   23782   23782   23767   23746   23746   23746   23735   23707
   23707   23696   23679   23668   23666   23657   23636   23612   23603   23594
   23550   23541   23536   23523   23483   23467   23464   23450   23410   23383
   23383   23364   23334   23300   23278   23233   23203   23203   23186   23154
   23121   23121   23107   23083   23051   23032   23025   23018   22980   22960
   22951   22951   22931   22911   22888   22860   22844   22837   22837   22811
   22793   22784   22784   22746   22718   22718   22718   22694   22663   22663
   22663   22648   22610   22610   22587   22556   22556   22556   22542   22506
   22506   22506   22500   22472   22466   22459   22440   22421   22413   22409
   22386   22370   22361   22361   22325   22311   22306   22284   22271   22265
   22265   22247   22230   22212   22187   22182   22178   22167   22142   22132
   22130   22120   22099   22080   22066   22041   22031   22028   22014   21994
   21981   21981   21976   21965   21952   21952   21926   21906   21906   21906
   21884   21854   21854   21843   21826   21803   21803   21781   21751   21751
   21751   21734   21690   21690   21690   21681   21635   21626   21619   21603
   21589   21583   21576   21542   21535   21525   21499   21483   21476   21472
   21451   21429   21415   21415   21386   21361   21339   21313   21308   21301
   21282   21262   21244   21230   21230   21206   21181   21163   21141   21132
   21129   21113   21091   21077   21077   21056   21034   21017   21017   20974
   20941   20941   20913   20886   20864   20864   20823   20792   20792   20792
   20760   20718   20718   20718   20699   20653   20653   20625   20588   20588
   20588   20568   20519   20519   20519   20509   20458   20448   20439   20416
   20386   20374   20368   20340   20312   20295   20295   20248   20229   20224
   20199   20178   20166   20166   20138   20112   20093   20093   20067   20038
   20014   19990   19980   19975   19951   19929   19905   19879   19850   19839
   19835   19813   19791   19777   19777   19748   19718   19695   19695   19651
   19618   19618   19618   19587   19545   19545   19523   19495   19465   19465
   19430   19384   19384   19384   19363   19309   19309   19309   19298   19246
   19235   19226   19203   19170   19157   19146   19091   19080   19080   19080
   19036   19018   19012   18980   18952   18935   18935   18908   18883   18860
   18834   18829   18818   18789   18768   18746   18728   18728   18705   18679
   18657   18631   18621   18616   18593   18567   18551   18551   18528   18502
   18480   18480   18435   18402   18402   18369   18341   18322   18322   18300
   18274   18250   18250   18218   18176   18176   18176   18155   18101   18101
   18084   18056   18028   18023   18003   17952   17952   17952   17942   17892
   17882   17871   17844   17811   17798   17792   17763   17736   17721   17721
   17692   17666   17641   17614   17584   17566   17566   17541   17518   17500
   17500   17477   17449   17423   17398   17388   17382   17350   17319   17292
   17271   17271   17253   17224   17195   17168   17153   17153   17124   17096
   17073   17073   17024   16988   16988   16988   16956   16913   16913   16892
   16867   16843   16843   16813   16773   16773   16773   16756   16712   16712
   16712   16701   16649   16638   16627   16598   16567   16555   16546   16500
   16491   16491   16491   16441   16421   16416   16389   16360   16342   16342
   16315   16289   16270   16270   16247   16218   16189   16162   16134   16111
   16111   16090   16065   16040   16011   16000   15996   15975   15949   15932
   15932   15903   15877   15857   15857   15814   15781   15781   15757   15732
   15711   15711   15687   15658   15630   15630   15600   15559   15559   15559
   15535   15475   15475   15475   15465   15415   15405   15387   15343   15343
   15343   15334   15288   15279   15270   15247   15221   15211   15206   15183
   15156   15139   15139   15110   15081   15053   15030   15006   14991   14991
   14962   14932   14907   14907   14889   14866   14845   14823   14814   14809
   14783   14757   14742   14742   14716   14691   14667   14637   14613   14599
   14599   14575   14551   14533   14533   14511   14486   14463   14463   14436
   14400   14400   14400   14379   14326   14326   14301   14267   14267   14267
   14248   14202   14202   14202   14192   14142   14132   14123   14099   14075
   14065   14055   14006   13996   13996   13996   13950   13931   13927   13908
   13883   13867   13867   13846   13823   13803   13803   13783   13758   13733
   13710   13688   13670   13670   13653   13632   13608   13587   13578   13573
   13549   13528   13516   13516   13490   13467   13450   13450   13417   13393
   13393   13368   13346   13331   13331   13315   13294   13270   13270   13246
   13213   13213   13213   13196   13152   13152   13152   13143   13098   13089
   13074   13036   13036   13036   13028   12985   12977   12977   12977   12931
   12912   12907   12885   12861   12846   12846   12824   12798   12771   12749
   12726   12712   12712   12690   12669   12653   12653   12639   12617   12591
   12572   12565   12560   12538   12518   12507   12507   12486   12466   12448
   12426   12409   12400   12400   12381   12364   12351   12351   12335   12316
   12300   12300   12275   12242   12242   12242   12227   12191   12191   12179
   12160   12141   12137   12121   12080   12080   12080   12072   12031   12023
   12015   11995   11974   11965   11962   11945   11927   11916   11916   11877
   11861   11857   11840   11824   11815   11815   11801   11783   11768   11768
   11756   11738   11715   11696   11674   11656   11656   11638   11616   11595
   11595   11585   11567   11546   11527   11516   11516   11500   11484   11471
   11471   11439   11415   11415   11400   11381   11363   11363   11347   11327
   11308   11308   11286   11257   11257   11257   11243   11208   11208   11208
   11201   11163   11156   11143   11109   11109   11109   11101   11063   11055
   11055   11055   11025   11013   11010   10992   10972   10959   10959   10942
   10927   10916   10916   10886   10863   10863   10851   10833   10816   10816
   10803   10787   10768   10748   10740   10737   10719   10699   10686   10686
   10670   10654   10639   10622   10609   10601   10601   10581   10564   10551
   10551   10537   10520   10504   10504   10483   10456   10456   10456   10443
   10411   10411   10400   10382   10368   10365   10352   10318   10318   10318
   10311   10278   10271   10265   10249   10233   10226   10223   10211   10193
   10182   10182   10151   10138   10135   10119   10105   10096   10096   10078
   10060   10046   10046   10035   10019   10001    9991    9987    9984    9971
    9957    9940    9920    9920    9912    9897    9881    9868    9860    9860
    9845    9832    9823    9823    9812    9798    9784    9784    9766    9743
    9743    9732    9718    9703    9703    9687    9665    9665    9665    9651
    9618    9618    9618    9611    9581    9574    9563    9535    9535    9535
    9529    9500    9494    9494    9494    9463    9450    9447    9433    9416
    9405    9405    9391    9375    9361    9361    9339    9323    9323    9309
    9294    9281    9281    9272    9260    9245    9245    9236    9221    9207
    9195    9188    9188    9173    9158    9145    9132    9119    9112    9112
    9096    9081    9070    9070    9060    9047    9033    9033    9015    8992
    8992    8992    8979    8947    8947    8936    8920    8908    8905    8894
    8867    8867    8867    8863    8841    8837    8837    8837    8809    8798
    8794    8777    8763    8755    8755    8727    8716    8713    8700    8687
    8680    8680    8664    8653    8645    8645    8637    8626    8614    8599
    8593    8591    8576    8562    8548    8535    8535    8527    8515    8501
    8489    8481    8481    8465    8450    8439    8439    8431    8419    8404
    8404    8384    8359    8359    8349    8336    8322    8322    8315    8302
    8291    8289    8278    8251    8251    8251    8245    8214    8208    8202
    8187    8174    8168    8164    8142    8137    8137    8137    8120    8114
    8111    8098    8085    8077    8077    8066    8052    8039    8039    8029
    8015    8002    7992    7980    7969    7969    7962    7953    7943    7943
    7937    7926    7914    7901    7893    7893    7880    7866    7853    7841
    7829    7822    7822    7809    7793    7780    7780    7770    7759    7749
    7749    7733    7712    7712    7712    7701    7673    7673    7666    7655
    7645    7643    7634    7611    7611    7611    7606    7582    7577    7577
    7577    7548    7536    7534    7522    7509    7502    7502    7478    7469
    7469    7469    7450    7436    7436    7423    7409    7397    7397    7392
    7383    7371    7357    7351    7349    7337    7326    7316    7304    7304
    7297    7286    7273    7263    7257    7257    7247    7235    7225    7225
    7216    7206    7197    7197    7184    7166    7166    7155    7143    7133
    7133    7125    7114    7106    7105    7096    7075    7075    7075    7071
    7050    7045    7045    7045    7023    7015    7010    6985    6980    6980
    6980    6952    6941    6938    6926    6915    6908    6908    6897    6884
    6873    6873    6862    6850    6838    6828    6817    6807    6807    6797
    6785    6774    6774    6769    6760    6749    6738    6731    6731    6721
    6712    6706    6706    6697    6686    6675    6663    6651    6642    6642
    6633    6623    6612    6612    6598    6579    6579    6579    6571    6553
    6553    6553    6549    6530    6526    6517    6497    6497    6497    6493
    6475    6471    6471    6471    6455    6448    6446    6435    6422    6414
    6414    6397    6390    6390    6390    6376    6365    6365    6355    6345
    6336    6336    6329    6320    6309    6309    6302    6291    6281    6273
    6265    6257    6257    6252    6243    6233    6224    6219    6219    6209
    6200    6193    6193    6184    6174    6166    6166    6157    6144    6144
    6137    6128    6119    6119    6114    6107    6098    6096    6088    6068
    6068    6068    6064    6043    6039    6039    6039    6020    6013    6009
    5990    5986    5986    5986    5970    5963    5963    5963    5947    5935
    5935    5929    5919    5909    5909    5901    5890    5879    5870    5862
    5855    5855    5849    5842    5834    5834    5828    5819    5810    5801
    5796    5796    5791    5785    5780    5780    5771    5761    5753    5744
    5734    5727    5727    5720    5711    5703    5703    5697    5686    5678
    5676    5670    5654    5654    5654    5651    5634    5630    5624    5607
    5607    5607    5604    5586    5583    5583    5583    5563    5554    5553
    5547    5537    5531    5531    5522    5514    5508    5508    5493    5481
    5481    5472    5465    5461    5461    5454    5445    5435    5435    5430
    5421    5413    5405    5396    5387    5387    5385    5381    5374    5373
    5369    5361    5350    5341    5336    5336    5327    5317    5308    5308
    5297    5283    5283    5273    5265    5261    5261    5255    5246    5242
    5241    5235    5220    5220    5220    5217    5201    5198    5198    5198
    5186    5181    5179    5169    5167    5167    5167    5153    5147    5147
    5147    5136    5128    5128    5122    5117    5113    5113    5107    5100
    5093    5086    5080    5075    5075    5071    5064    5055    5055    5053
    5050    5043    5038    5035    5035    5026    5017    5011    5011    5006
    4999    4993    4988    4981    4974    4974    4969    4962    4953    4953
    4949    4943    4936    4934    4928    4911    4911    4911    4909    4898
    4896    4894    4887    4878    4874    4871    4855    4852    4852    4852
    4839    4833    4833    4828    4823    4819    4819    4810    4802    4795
    4795    4783    4774    4774    4768    4762    4757    4757    4752    4745
    4737    4737    4733    4727    4723    4717    4713    4713    4705    4697
    4689    4682    4680    4677    4668    4661    4655    4651    4651    4645
    4638    4632    4632    4627    4619    4610    4608    4602    4589    4589
    4585    4579    4573    4571    4566    4553    4553    4553    4551    4540
    4537    4537    4537    4523    4517    4515    4503    4501    4501    4501
    4490    4486    4486    4486    4476    4469    4469    4461    4454    4449
    4449    4445    4438    4430    4430    4423    4414    4414    4409    4402
    4396    4396    4395    4391    4383    4377    4373    4373    4368    4363
    4358    4358    4353    4347    4341    4333    4326    4320    4320    4316
    4310    4305    4305    4302    4298    4293    4292    4288    4277    4277
    4277    4275    4265    4263    4261    4255    4247    4244    4242    4229
    4226    4226    4226    4216    4212    4212    4212    4205    4199    4199
    4193    4189    4186    4186    4176    4169    4169    4166    4162    4159
    4159    4154    4148    4141    4141    4138    4134    4130    4123    4119
    4119    4114    4108    4102    4097    4096    4094    4086    4081    4076
    4073    4073    4065    4058    4055    4055    4052    4047    4040    4038
    4034    4023    4023    4020    4016    4010    4009    4006    3997    3997
    3997    3994    3980    3977    3977    3977    3962    3956    3955    3949
    3943    3938    3938    3926    3921    3921    3921    3912    3905    3905
    3900    3893    3888    3888    3884    3880    3875    3875    3872    3866
    3861    3854    3848    3841    3841    3839    3834    3828    3827    3825
    3818    3813    3808    3803    3803    3797    3791    3785    3775    3768
    3765    3765    3759    3752    3746    3746    3744    3739    3737    3736
    3732    3720    3720    3720    3718    3711    3709    3708    3704    3699
    3698    3696    3686    3684    3684    3684    3677    3674    3674    3674
    3664    3657    3657    3654    3651    3649    3649    3639    3632    3632
    3632    3626    3618    3618    3617    3613    3606    3606    3602    3597
    3594    3590    3588    3588    3583    3577    3572    3566    3565    3564
    3560    3555    3551    3548    3548    3544    3541    3540    3540    3537
    3533    3529    3528    3525    3516    3516    3514    3511    3508    3507
    3505    3499    3493    3491    3489    3477    3475    3475    3475    3468
    3465    3464    3460    3453    3449    3449    3439    3436    3436    3436
    3428    3422    3422    3416    3411    3407    3407    3405    3401    3398
    3398    3396    3394    3389    3383    3377    3370    3370    3368    3365
    3359    3358    3356    3350    3347    3344    3341    3341    3337    3331
    3326    3326    3323    3319    3314    3310    3306    3302    3302    3297
    3290    3289    3288    3285    3277    3277    3277    3276    3269    3267
    3267    3267    3260    3257    3255    3246    3244    3244    3244    3233
    3229    3229    3229    3220    3214    3214    3210    3206    3202    3202
    3192    3185    3185    3185    3181    3176    3176    3173    3169    3165
    3165    3163    3158    3152    3149    3147    3147    3142    3136    3131
    3128    3127    3126    3123    3119    3116    3114    3114    3109    3103
    3100    3100    3098    3094    3091    3090    3087    3077    3077    3076
    3073    3071    3071    3069    3066    3061    3060    3058    3052    3050
    3050    3050    3041    3037    3037    3037    3030    3024    3024    3017
    3014    3014    3014    3007    3001    3001    2997    2993    2990    2990
    2987    2982    2977    2977    2974    2970    2966    2962    2959    2956
    2956    2955    2953    2950    2949    2948    2945    2943    2941    2939
    2939    2936    2932    2929    2929    2927    2924    2922    2919    2914
    2908    2908    2906    2902    2897    2896    2895    2893    2889    2887
    2885    2877    2875    2875    2875    2867    2864    2862    2855    2853
    2853    2853    2848    2846    2846    2846    2840    2835    2835    2832
    2829    2827    2827    2824    2820    2814    2814    2810    2804    2804
    2800    2796    2791    2791    2788    2783    2779    2778    2777    2774
    2770    2766    2762    2757    2756    2755    2753    2750    2746    2742
    2742    2738    2733    2729    2729    2728    2726    2724    2723    2720
    2712    2712    2708    2702    2700    2700    2699    2696    2692    2691
    2689    2681    2680    2680    2680    2672    2669    2669    2669    2662
    2657    2657    2649    2646    2646    2646    2638    2632    2632    2632
    2627    2620    2620    2618    2616    2613    2613    2611    2608    2604
    2599    2596    2593    2593    2591    2587    2586    2586    2584    2580
    2577    2575    2573    2573    2571    2567    2563    2563    2561    2558
    2556    2553    2550    2546    2546    2545    2543    2541    2540    2538
    2534    2532    2531    2530    2523    2521    2521    2521    2517    2515
    2514    2507    2506    2506    2506    2499    2497    2497    2497    2490
    2485    2485    2483    2481    2479    2479    2477    2474    2471    2471
    2467    2461    2461    2458    2453    2448    2448    2446    2442    2438
    2437    2437    2435    2430    2427    2426    2426    2423    2420    2419
    2417    2417    2416    2411    2408    2406    2405    2405    2404    2402
    2399    2398    2395    2388    2388    2388    2388    2386    2386    2384
    2380    2378    2377    2376    2371    2370    2370    2370    2364    2362
    2362    2362    2354    2349    2349    2346    2344    2344    2344    2339
    2335    2335    2335    2330    2323    2323    2321    2318    2314    2314
    2312    2309    2305    2304    2302    2297    2297    2295    2292    2287
    2286    2284    2281    2278    2276    2274    2274    2272    2269    2266
    2266    2264    2261    2257    2253    2250    2247    2247    2246    2244
    2240    2239    2238    2235    2233    2233    2232    2229    2228    2228
    2228    2223    2222    2221    2219    2216    2215    2215    2211    2209
    2209    2209    2203    2199    2199    2203    2203    2201    2199    2197
    2195    2193    2191    2189    2187    2185    2183    2181    2179    2177
    2175    2173    2171    2170    2168    2166    2164    2162    2160    2158
    2156    2154    2152    2150    2148    2146    2144    2143    2141    2139
    2137    2135    2133    2131    2129    2127    2125    2123    2121    2120
    2118    2116    2114    2112    2110    2108    2106    2105    2103    2101
    2099    2097    2095    2093    2091    2090    2088    2086    2084    2082
    2080    2078    2077    2075    2073    2071    2069    2067    2066    2064
    2062    2060    2058    2056    2055    2053    2051    2049    2047    2045
    2044    2042    2040    2038    2036    2035    2033    2031    2029    2028
    2026    2024    2022    2020    2018    2017    2015    2013    2011    2010
    2008    2006    2004    2003    2001    1999    1997    1995    1994    1992
    1990    1988    1987    1985    1983    1981    1980    1978    1976    1974
    1973    1971    1969    1968    1966    1964    1962    1961    1959    1957
    1956    1954    1952    1950    1949    1947    1945    1944    1942    1940
    1938    1937    1935    1933    1932    1930    1928    1926    1925    1923
    1921    1920    1918    1916    1915    1913    1911    1910    1908    1906
    1905    1903    1901    1900    1898    1896    1895    1893    1891    1890
    1888    1886    1885    1883    1882    1880    1878    1877    1875    1873
    1872    1870    1868    1867    1865    1864    1862    1860    1859    1857
    1856    1854    1852    1851    1849    1847    1846    1844    1843    1841
    1840    1838    1836    1835    1833    1832    1830    1828    1827    1825
    1824    1822    1820    1819    1817    1816    1814    1813    1811    1809
    1808    1806    1805    1803    1802    1800    1799    1797    1795    1794
    1792    1791    1789    1788    1786    1785    1783    1782    1780    1778
    1777    1775    1774    1772    1771    1769    1768    1766    1765    1763
    1762    1760    1759    1757    1756    1754    1753    1751    1750    1748
    1747    1745    1744    1742    1741    1739    1738    1736    1735    1733
    1732    1730    1729    1727    1726    1724    1723    1721    1720    1718
    1717    1715    1714    1712    1711    1710    1708    1707    1705    1704
    1702    1701    1699    1698    1696    1695    1694    1692    1691    1689
    1688    1686    1685    1684    1682    1681    1679    1678    1676    1675
    1674    1672    1671    1669    1668    1666    1665    1664    1662    1661
    1659    1658    1656    1655    1654    1652    1651    1649    1648    1647
    1645    1644    1642    1641    1640    1638    1637    1636    1634    1633
    1631    1630    1629    1627    1626    1624    1623    1622    1620    1619
    1618    1616    1615    1614    1612    1611    1609    1608    1607    1605
    1604    1603    1601    1600    1599    1597    1596    1595    1593    1592
    1591    1589    1588    1586    1585    1584    1583    1581    1580    1579
    1577    1576    1574    1573    1572    1571    1569    1568    1567    1565
    1564    1563    1561    1560    1559    1557    1556    1555    1554    1552
    1551    1550    1548    1547    1546    1544    1543    1542    1541    1539
    1538    1537    1535    1534    1533    1532    1530    1529    1528    1526
    1525    1524    1523    1521    1520    1519    1518    1516    1515    1514
    1512    1511    1510    1509    1507    1506    1505    1504    1502    1501
