si 9737                                                                         
BANK 1 5600 560 CONST 2000 5 0 0 STD                                            
    8523    8696    8401    8581    8448    8590    8535    8660    8861    8903
    8576    8579    8746    8432    8338    8479    8561    8852    8886    8547
    9009    8804    8379    8410    8438    8490    8764    9001    8568    8511
    8507    8373    8321    8305    8299    8660    8850    8811    8181    8343
    8477    8416    8292    8057    7977    8088    7800    8048    7878    7711
    8029    7938    7794    7963    7766    7822    8311    8112    8044    8068
    7806    7862    8060    7821    7807    7828    7903    7967    8761    8546
    8759    9336    8354    8059    8090    8234    8054    8221    8071    7620
    7627    7936    7925    7731    8181    7669    7524    7575    8158    7916
    7892    8291    7648    7346    7361    7474    7718    7500    8720    8657
    7637    7485    7340    8019    7712    7324    7187    7111    7018    7093
    7427    8759    8043    7712    8881    8572    7378    7166    6967    7593
    7780    7185    6716    6645    6544    6516    6477    6673    6916    6935
    6619    6820    7020    6688    6515    6601    6580    7541    7965    7247
    6999    8052    7592    7018    6755    6559    6838    8016    7803    7274
    7547    9711    8588    7383    6748    6636    6637    7221    7446    7028
    6566    6971    7133    6712    6192    6388    5996    6229    7306    7833
    6720    6396    7893    9613    7725    6667    6231    6108    5935    6326
    7714    7155    6045    5778    5924    5907    5758    5627    5489    5392
    5346    5515    6331    6268    5738    5521    5893    7485    7174    6084
    5730    5501    5390    5526    5581    7787    8277    6609    5836    5596
    6206    6625    5864    5495    5384    5240    5151    5165    5448    7553
    8387    6560    5704    5405    6099    7878    7036    5834    5502    5090
    4961    4781    4840    4855    5171    5514    5064    4837    4833    5098
    5958    6221    5388    5067    4789    4930    4899    4672    4781    4953
    6532    8219    6666    5581    5207    5238    6135   10066    9069    6561
    5506    4970    4990    4834    4746    4673    4626    5070    6600    6236
    5288    4915    4682    4602    4991    6641    6475    5304    4760    4562
    4431    4329    4321    4310    4347    4270    4901    7203    7116    5685
    4811    4561    4525    4642    6703    8921    7208    5431    4915    4703
    4226    4305    4114    4044    3977    4014    4101    6419   10137    8392
    6014    4864    4532    4245    4077    4259    5061    5116    4413    3921
    3877    3812    3725    3778    3679    3668    3520    3630    3704    3738
    5368    6470    5199    4456    4105    3939    3874    3830    4395    7077
    9745    7566    5378    4627    4133    3967    3731    3702    3469    3526
    3570    3430    3428    3516    3776    5275    6697    5368    4372    3879
    3635    3636    3552    3484    3455    3461    3325    3416    3378    3343
    3410    3341    3396    3403    3392    3350    3447    3418    3371    3444
    3454    3455    4375    7562    8783    6385    4795    4182    3926    3673
    3727    3549    3567    4645   10443   15160   11327    7055    5390    4623
    4132    3918    3736    3480    3379    3347    3335    3306    3290    3185
    3163    3241    3316    4191    7718    9855    7001    5037    4268    3828
    3578    3500    3300    3201    3277    3285    4539    7318    7312    5284
    4169    3748    3477    3354    3162    3152    3046    3028    2993    2990
    2908    2959    3006    3031    2968    2945    3024    3015    3706    6373
    7932    6272    4687    3808    3524    3421    3156    3109    3075    2969
    2952    2887    3070    5155    8059    7507    5431    4014    3712    3357
    3118    2972    2992    2980    2873    2801    2827    2772    2818    2765
    2792    2795    2766    2721    2715    2835    2958    2938    3979    8301
   11705    9536    6408    4733    4093    3688    3388    3142    2956    2993
    2920    2864    2827    2879    3110    4699    8306    9011    6640    4738
    4022    3534    3363    3153    2927    2835    2805    2713    2651    2702
    2632    2677    2686    2598    2599    2639    2504    2580    2625    2584
    2617    2607    2726    2708    3299    6388   10601   10044    6920    5007
    4231    3651    3454    3146    2937    2832    2698    2663    2596    2662
    2581    2697    2730    3077    5904   11792   14248   10109    7055    5369
    4511    3873    3425    3275    2862    2946    2750    2740    2655    2638
    2642    2576    2499    2571    2567    2547    2453    2577    2429    2498
    2548    2449    2537    2509    2495    2496    2483    2577    2645    3665
    5853    6929    5642    4411    3663    3301    3051    2871    2821    2668
    2572    2596    2548    2560    2571    2507    2543    2505    2516    2475
    2558    2600    3256    4497    4837    4264    3579    3251    3034    2867
    2807    2732    2722    2585    2519    2545    2515    2557    2446    2530
    2453    2459    2395    2436    2472    2445    2459    2447    2378    2450
    2403    2475    2391    2459    2430    2387    2420    2418    2471    2607
    2497    2567    2589    3361    6851   14745   19154   15542   10820    7842
    6303    5256    4520    3840    3525    3285    3130    2867    2874    2797
    2567    2670    2593    2522    2573    2477    2568    2578    2550    2656
    2839    3884    9749   21238   26821   21748   14893   10963    8369    6785
    5484    4886    4203    3769    3463    3170    3021    2832    2771    2663
    2664    2518    2567    2451    2383    2454    2412    2460    2414    2336
    2462    2367    2493    2398    2544    2395    2352    2470    2374    2406
    2456    2354    2349    2309    2394    2497    2411    2417    2485    2414
    2526    2579    2711    3524    7197   13883   16759   14044   10245    7923
    6388    5360    4652    3966    3523    3427    3110    3080    2846    2783
    2601    2603    2587    2553    2500    2557    2395    2400    2386    2450
    2341    2372    2384    2415    2328    2380    2388    2362    2794    4334
    6446    7736    6763    5405    4553    4038    3495    3166    2961    2926
    2702    2640    2521    2523    2476    2457    2371    2368    2359    2231
    2189    2299    2263    2254    2257    2203    2298    2262    2257    2270
    2264    2318    2299    2243    2217    2276    2250    2306    2424    2423
    2402    2342    2364    2400    2336    2328    2329    2344    2303    2311
    2332    2299    2289    2309    2316    2233    2354    2318    2299    2334
    2261    2291    2400    2555    3031    5103    8999   11853   11346    9125
    7168    5790    5049    4427    3944    3618    3209    2877    2792    2690
    2680    2593    2527    2443    2387    2449    2307    2370    2345    2311
    2306    2250    2335    2262    2305    2331    2283    2290    2267    2369
    2269    2275    2346    2360    2317    2290    2428    2535    2569    3179
    5383   11972   20289   23321   20649   16186   12601   10158    8328    6887
    5834    5046    4349    3921    3505    3239    3074    2835    2702    2591
    2536    2437    2373    2342    2419    2322    2418    2343    2264    2260
    2178    2225    2291    2285    2171    2229    2234    2199    2269    2250
    2049    2273    2186    2188    2156    2156    2242    2256    2269    2200
    2161    2132    2201    2143    2098    2247    2091    2182    2178    2097
    2158    2108    2089    2198    2007    2147    2091    2094    2080    2037
    2149    2181    2096    2082    2183    2040    2158    2108    2107    2144
    2183    2176    2197    2190    2173    2261    2374    2659    4010    8958
   17983   26353   27585   23657   18545   14665   12132    9698    8032    6736
    5723    4850    4378    3916    3449    3118    2879    2686    2626    2417
    2348    2361    2213    2317    2192    2170    2087    2184    2139    2010
    2108    2153    2120    2109    2178    1996    2153    2086    2140    2122
    2125    2023    1992    2116    2077    2009    2041    2022    2006    2030
    2016    2030    1978    2034    2089    2120    2074    2197    2255    2282
    2578    3565    6863   12107   16278   16706   14635   11968    9697    8129
    6814    5757    4931    4334    3809    3452    3130    2984    2706    2567
    2461    2425    2395    2343    2306    2229    2281    2125    2070    2050
    2108    2063    2044    2034    2042    1996    2031    2022    1974    2081
    2014    2054    2018    2002    1994    2057    1987    2018    1973    1922
    2059    1997    1917    1985    2017    1940    1956    2008    2003    2035
    1981    2032    1946    1977    1947    2050    1924    1994    1900    1928
    2001    1931    1961    1941    1953    1939    1861    1859    2000    1854
    1878    1944    1916    1914    1856    1838    1921    1911    1882    1943
    1990    1899    1921    1890    1842    1837    1857    1917    1881    1844
    1886    1865    1864    1762    1896    1880    1913    1811    1872    1851
    1891    1828    1871    1874    1928    1922    1875    1927    1900    1862
    1951    1925    1968    1954    2070    2014    2179    2624    4111    8694
   16086   23245   25878   24292   20748   16740   13745   11053    9004    7617
    6363    5442    4674    4051    3611    3286    2843    2634    2489    2388
    2209    2121    2068    1966    1953    1926    1947    1944    1884    1771
    1925    1822    1867    1881    1942    1887    1875    1801    1956    1842
    1883    1886    1955    1836    1863    1822    1778    1849    1800    1856
    1850    1831    1821    1824    1805    1725    1808    1722    1813    1728
    1747    1850    1655    1674    1767    1816    1740    1824    1732    1767
    1735    1703    1750    1795    1809    1806    1768    1796    1845    1871
    1887    1921    1944    1977    1967    2119    2053    2189    2205    2172
    2359    2697    3881    7764   16561   29157   39385   42703   39559   33260
   27121   22115   18127   14615   12158    9897    8156    6763    5780    4898
    4288    3647    3256    2932    2640    2460    2388    2238    2211    2042
    2070    1970    1959    1891    1914    1799    1803    1811    1712    1717
    1719    1773    1719    1648    1748    1665    1666    1681    1679    1697
    1694    1639    1582    1711    1619    1596    1651    1628    1591    1620
    1664    1580    1587    1658    1610    1545    1616    1542    1572    1549
    1605    1579    1540    1570    1579    1549    1528    1600    1636    1555
    1518    1525    1575    1481    1558    1532    1595    1564    1514    1533
    1556    1560    1540    1600    1604    1599    1510    1530    1483    1612
    1572    1513    1540    1525    1568    1567    1527    1596    1545    1546
    1555    1550    1554    1580    1589    1555    1551    1516    1651    1569
    1541    1583    1575    1554    1486    1519    1463    1475    1459    1438
    1517    1516    1401    1457    1375    1500    1429    1494    1477    1481
    1397    1374    1501    1417    1424    1429    1466    1418    1385    1469
    1415    1416    1437    1402    1428    1374    1412    1391    1396    1444
    1289    1341    1392    1429    1362    1351    1356    1426    1376    1441
    1355    1343    1470    1440    1414    1457    1396    1307    1382    1377
    1349    1336    1360    1390    1442    1417    1403    1337    1421    1457
    1378    1434    1495    1495    1537    1589    1568    1619    1736    1592
    1586    1601    1717    1651    1766    1898    2010    2898    5106   10121
   16817   23425   26687   25770   23507   19706   15973   13670   11227    9068
    7479    6459    5393    4348    3762    3405    2866    2575    2214    2178
    1950    1854    1846    1738    1670    1628    1533    1523    1570    1467
    1507    1393    1460    1370    1361    1349    1352    1370    1372    1308
    1319    1383    1372    1334    1387    1321    1328    1336    1324    1332
    1342    1325    1196    1315    1282    1383    1362    1328    1350    1328
    1327    1380    1382    1339    1374    1370    1353    1398    1302    1414
    1338    1310    1296    1265    1291    1227    1248    1327    1256    1242
    1291    1267    1369    1249    1272    1304    1272    1267    1260    1257
    1255    1299    1256    1337    1234    1206    1258    1216    1290    1257
    1287    1295    1412    1365    1338    1316    1353    1259    1241    1258
    1280    1229    1279    1248    1178    1230    1235    1171    1232    1210
    1193    1193    1198    1126    1204    1222    1187    1141    1204    1249
    1179    1179    1191    1187    1149    1141    1175    1120    1140    1124
    1186    1101    1188    1125    1176    1176    1194    1201    1171    1229
    1125    1188    1189    1245    1229    1274    1254    1237    1265    1240
    1327    1355    1552    1740    2232    3852    6443   10157   13495   15453
   15643   14421   12520   10754    9051    7569    6239    5300    4317    3743
    3162    2806    2394    2193    2004    1765    1752    1576    1460    1348
    1364    1286    1274    1306    1188    1124    1194    1234    1173    1157
    1166    1106    1107    1158    1166    1098    1064    1093    1097    1070
    1124    1040    1065    1018    1026    1047    1023    1084    1073    1026
    1040    1035    1050    1050    1104    1065    1014    1034    1066    1036
     994    1012    1018    1029    1023    1024    1016    1090    1052    1008
    1015    1029    1016    1023     983    1059     978     967    1020     976
    1035    1010    1042     984    1026     972     931     975    1018     928
     971    1010     951     965    1050    1009    1034     972     995     939
     953     977     968     958     966     983     957     976     998     992
     996     968     963     999     956     988     948     945     925     957
     981     934     949     931     908     900     953     941     916     892
     980     872     955     912     931     975     949     920     873     955
     919     947     908     911     902     932     895     962     880     875
     858     863     895     900     954     912     864     860     870     848
     860     874     821     925     826     860     837     880     837     861
     882     869     790     835     827     854     852     887     818     842
     832     873     837     897     866     834     821     860     878     866
     809     836     783     859     830     822     857     829     841     870
     824     823     806     858     873     850     839     786     790     876
     836     818     795     842     811     838     777     817     884     845
     752     810     818     805     839     822     781     891     836     877
     872     954     855     896     916     920     917     924     873     876
     858     836     831     815     797     785     830     800     821     828
     784     767     841     775     762     786     804     825     781     813
     780     783     787     755     820     820     775     795     817     867
     828     814     887     821     789     772     803     837     803     806
     795     764     771     861     830     752     781     793     725     800
     708     799     764     752     835     804     724     744     779     768
     756     765     761     773     771     711     738     761     743     751
     738     704     728     772     758     733     762     773     721     746
     745     755     727     779     754     779     724     728     749     760
     719     709     754     701     695     707     717     727     717     665
     706     746     688     714     693     667     734     679     713     718
     688     680     700     683     695     689     726     687     678     694
     631     695     687     670     635     760     722     687     733     677
     710     698     664     771     687     697     765     735     699     745
     733     749     692     731     733     750     724     743     757     731
     701     758     705     755     701     711     751     789     779     779
     778     828     902     881     912     965    1012    1067    1148    1422
    1750    2717    4951    9104   14935   21784   28326   32052   33017   31666
   28113   23942   20544   16755   13578   11211    9292    7294    6112    5014
    4221    3598    2852    2531    2199    1874    1661    1500    1338    1250
    1138    1092    1005     984     957     921     882     772     818     800
     808     762     781     732     748     705     729     765     712     689
     663     653     690     742     689     685     660     684     680     657
     687     655     618     688     627     661     687     653     646     671
     610     634     649     600     625     604     599     609     648     626
     571     604     632     634     622     619     598     619     590     583
     609     579     623     567     616     572     573     523     576     557
     585     581     557     571     540     555     548     564     529     579
     538     508     576     536     532     602     515     507     532     543
     577     555     505     583     544     511     530     560     555     597
     523     489     521     534     533     521     507     531     512     505
     494     526     518     479     488     525     516     560     507     518
     499     502     540     498     527     512     532     494     483     486
     514     516     492     499     547     483     504     511     494     454
     505     504     468     520     479     457     441     472     444     479
     496     442     495     484     506     478     510     445     461     464
     463     416     442     464     446     482     434     440     480     489
     470     448     534     443     442     476     467     455     431     458
     424     449     463     454     465     493     483     483     476     481
     448     478     435     415     423     477     420     435     441     406
     458     462     414     435     409     394     438     442     424     410
     447     466     428     409     438     443     418     442     421     456
     457     437     433     468     435     459     452     462     424     447
     438     419     431     468     430     425     384     413     422     387
     426     401     410     379     411     425     409     398     404     410
     454     415     430     405     416     379     426     385     431     430
     406     392     368     411     403     418     379     400     412     390
     357     385     409     380     392     424     381     411     398     401
     388     382     383     369     421     427     393     404     375     375
     366     395     365     409     402     399     430     376     385     395
     404     431     439     408     410     363     412     395     395     429
     377     362     413     393     387     415     424     425     435     423
     437     425     429     449     435     447     447     452     458     443
     440     438     430     464     471     486     505     491     540     526
     542     487     513     487     503     450     449     474     422     390
     435     417     427     391     392     414     388     373     414     418
     406     437     396     414     402     403     392     451     430     365
     420     461     458     411     476     443     446     478     454     512
     543     534     549     595     601     659     660     679     793     858
    1042    1268    1887    3091    5432    9177   13954   19932   25240   28997
   30277   30140   27813   24235   21147   17552   14481   12228    9742    7985
    6527    5205    4458    3440    2961    2469    2066    1753    1500    1258
    1172    1132     941     969     810     774     686     641     654     563
     534     557     573     547     535     481     503     472     504     466
     434     450     501     452     449     493     440     407     425     451
     407     441     399     409     399     398     432     389     388     363
     365     371     392     381     385     396     368     352     379     362
     360     341     407     387     369     392     334     371     356     352
     363     338     342     337     368     371     325     344     341     371
     345     337     361     331     344     321     299     348     352     347
     351     313     297     322     337     339     335     347     314     313
     340     320     337     303     310     344     342     312     312     307
     296     323     295     283     302     311     289     327     302     332
     284     360     310     322     284     288     317     327     319     302
     290     282     292     297     276     336     315     290     273     308
     290     302     289     316     313     327     317     279     318     317
     320     320     310     344     362     285     318     297     307     317
     319     305     277     295     285     263     296     288     258     269
     271     261     250     241     271     277     280     246     248     249
     274     287     255     238     289     252     249     238     247     250
     244     253     237     248     256     240     271     239     272     241
     242     253     240     236     252     275     238     252     241     230
     230     255     239     219     219     221     223     239     255     250
     260     225     275     223     221     231     242     204     240     227
     250     261     226     241     251     204     223     237     225     270
     248     249     268     224     219     231     229     244     220     229
     256     245     226     241     235     247     240     211     249     260
     239     215     215     245     241     230     212     225     244     224
     208     236     209     235     223     218     225     203     256     250
     211     191     234     206     221     211     246     210     260     242
     212     252     221     249     230     230     256     232     211     229
     218     231     221     208     238     210     250     235     259     252
     247     223     261     308     290     269     284     301     312     326
     300     307     314     308     269     283     265     249     254     232
     271     226     259     230     216     246     251     229     274     217
     227     255     249     236     242     236     224     207     203     214
     228     214     222     209     219     207     216     222     187     220
     218     227     225     231     199     219     218     209     203     222
     213     186     208     196     195     213     220     227     233     184
     187     226     205     188     210     216     236     204     201     207
     205     175     223     218     215     195     228     243     200     216
     214     212     175     206     206     244     200     208     223     209
     188     217     201     202     229     211     201     204     206     218
     205     217     197     191     212     182     210     205     189     206
     195     192     177     197     214     202     192     231     187     187
     206     210     204     211     187     203     189     212     200     196
     213     200     193     209     178     185     199     207     203     189
     178     190     222     199     219     182     200     199     198     211
     188     206     185     212     205     238     207     203     219     198
     209     193     198     196     181     224     233     218     211     190
     200     199     221     215     187     210     234     205     200     221
     206     206     208     220     191     180     209     196     209     199
     174     175     195     193     175     224     199     189     190     197
     224     213     196     214     175     194     194     190     197     187
     186     185     188     193     190     200     208     227     194     204
     189     181     179     198     192     211     181     214     174     156
     193     220     183     209     170     188     171     203     202     196
     178     184     182     184     186     195     177     186     204     192
     189     217     182     198     207     167     180     163     190     195
     185     204     202     175     182     214     178     177     185     200
     178     183     219     176     183     200     166     177     191     198
     156     192     188     186     191     172     163     197     186     183
     181     186     204     192     199     191     175     208     168     169
     188     197     180     210     198     179     174     190     213     193
     172     172     188     172     164     168     179     182     193     171
     187     187     175     164     174     177     163     176     174     182
     151     200     177     153     165     190     190     193     204     171
     181     159     166     160     162     202     198     171     168     182
     170     178     192     184     192     205     167     168     196     183
     183     171     147     170     180     181     162     160     184     175
     180     179     166     190     185     165     168     194     164     186
     181     192     176     184     188     179     189     182     191     203
     183     192     189     184     181     227     239     223     214     222
     199     187     195     217     185     188     204     195     181     201
     199     167     187     167     161     174     165     167     143     155
     141     163     164     170     199     196     169     151     159     126
     172     151     155     155     170     164     158     141     147     172
     156     136     163     157     160     140     154     144     160     168
     168     155     153     156     168     150     152     139     154     173
     130     151     149     171     160     170     151     184     154     137
     175     138     171     145     140     132     152     153     153     145
     164     151     155     135     150     155     149     150     161     134
     144     132     148     158     127     156     129     143     119     145
     162     155     162     153     135     147     135     151     175     134
     146     151     146     139     148     150     115     139     133     136
     139     130     151     139     164     120     132     146     132     154
     131     154     134     151     150     140     151     140     134     158
     177     152     132     165     149     157     135     154     157     140
     180     127     143     129     161     159     151     151     157     149
     166     151     179     146     174     172     149     146     173     133
     156     132     133     160     124     152     133     136     154     127
     112     138     136     137     144     126     137     118     127     135
     147     130     126     136     151     122     136     140     121     135
     129     123     139     143     141     129     146     138     118     133
     129     133      86     137     134     149     145     137     131     116
     135     124     131     139     118     135     121     141     121     121
     125     125     150     115     131     148     137     112     120     123
     143     125     111     136     110     148     109     130     107     112
     137     127     123     136     121     123     111     113     127     121
     129     130     122     109     141     131     124     110     134     121
     121     117     117     121     136     138     118     122     122     130
     133     128     123     112     112     131     110     124     106     112
     140     113     116     118      94     120     113     110     123     137
     128     108     118     113     113     119     124     100     123     111
     106     114     123     104     100     126      98     118     125     120
     118     120     117     111     126     114     134     122     108     108
     106     110     102     115     115     112     105     121     105     105
     115      98     126     103     110     114     120     110      89     114
     108     101     104     125     106     132     107     102     130     108
     115     108     120     106     101     116     102     108     110     109
     108     121     104     136     129     112     103     103     121     107
     107     118     101     118     108     125     111      98     116     117
     104      95     109     103     107     117     102     116      99     100
     118     100      95      96     116     115     119     110     113     113
     127     113     100      99     104     103      93     113     113      95
     109     122      93     117     101     113     105     109     106      84
     100     103      94      99     110      98      98      82      86      95
     101     114     104      90      98      91     110     107     109     106
     109     101     102      95      99     113     104      92      98     102
      96      88     100     102      96      87     106      86      95     104
      97     106      81     106      97      99      86     117      99     103
      91      85      90     111     108      87      90      88      92     101
      85     101      96      80      93     108      95     110      74      94
      86      81      78      82      99     103      95      91      85     117
      89     111      81      92     111     104      88     102      86      94
      87      92      84      92      98      91      79      88     106      94
      95      97      88      85      99      97      90      92      85      84
      86      84      99      93     105      81      91      91      87      88
      72      93      86      95      93      96      86      77      90      84
      74      95      86     100      97      82      96      77      86      90
      95      89      89     104      80      95      85      83      92      84
      87      90      96      85      97     108      82     115      83      87
      83      87      95      96      90      86      85      93      87     105
      75      91      68      98      95      77      77      79      89      88
      93      89      91      77      95      81      80      90      79      90
     101      96      97      74      83     103      95      84      88      89
      93      86      89      79      99      97     102      86      83      95
      79      92      67      92      82      81      80      80      70      77
      90      87      91      85      88      76      81      89      77      79
      81      90      78      97      88      67      78      74      86      73
      76      74      95      79      71      89      88      70      88      79
      68      71      62      84      64      93      81      67      75      90
      82      73      90      84      70      65      84      71      86      72
      85      67      73      81      76      60      92      81      78      80
      74      87      78      81      77      78      80      66      91      70
      79      85      61      75      76      79      89      68      57      77
      81      69      74      66      88      70      73      86      72      67
      62      84      85      79      70      85      71      77      84      65
      73      77      76      78      70      84      76      64      67      70
      60      72      77      64      88      74      67      72      85      79
      69      82      68      80      86      67      72      74      74      61
      64      72      73      74      77      84      67      67      60      75
      78      68      65      76      69      69      69      75      84      63
      70      73      65      66      68      79      80      67      71      80
      58      68      70      55      79      71      72      71      80      68
      79      67      88      68      64      72      71      66      59      67
      69      72      61      66      75      78      70      61      64      68
      78      78      76      70      66      75      75      86      56      58
      67      70      65      80      73      74      68      69      72      73
      78      59      73      69      61      69      74      53      65      60
      86      68      52      63      60      66      59      68      64      74
      60      73      53      75      58      74      60      67      65      76
      77      67      46      78      68      59      71      66      79      72
      47      69      63      63      72      69      83      60      59      68
      68      71      70      57      71      50      69      55      54      60
      67      60      70      64      60      74      65      67      67      60
      56      63      61      55      63      60      63      80      60      61
      77      59      69      55      52      58      64      69      67      67
      75      50      60      80      62      78      70      61      65      79
      52      61      71      76      78      63      70      63      67      60
      62      51      70      67      69      57      67      65      69      56
      63      68      59      70      57      50      62      68      61      76
      54      53      70      54      60      70      75      57      68      63
      66      70      78      76      69      63      65      73      70      74
      61      77      64      67      68      54      63      59      63      73
      75      55      64      65      72      94      76      75      66      83
      71      85      75      74      71      77      81      67      70      80
      83      74      84      75      93      77      97      98      86      83
      77      99      96     108      95     113      85     106     117     108
     104      99     130     122     122     154     145     163     173     193
     215     255     336     419     571     772    1110    1552    2203    2837
    3678    4628    5469    6267    6673    7144    7116    6869    6700    6197
    5597    4907    4242    3742    3185    2599    2138    1820    1569    1208
    1031     873     667     602     533     428     389     325     246     289
     215     208     201     194     170     175     170     174     140     132
     119     129     130     126     116     102     113     128     101      82
     101     109      98     111     104      94     100      86      89      90
      65      80      82      75      77      81      87      87      98      88
      82      73      96      80      84      78      82      64      57      81
      71      78      69      84      73      67      66      63      72      96
      80      57      70      69      80      75      83      71      78      69
      83      71      62      64      53      69      73      76      60      49
      63      74      71      66      68      52      56      61      70      56
      69      61      63      54      57      67      72      57      61      51
      67      43      54      64      62      59      60      65      57      62
      56      52      50      53      55      58      46      58      56      58
      61      45      50      66      61      64      46      36      49      55
      44      39      39      65      50      43      46      55      62      48
      51      53      46      49      55      51      54      51      65      53
      68      56      55      46      54      49      54      46      59      49
      46      39      61      53      43      48      38      59      49      55
      51      52      46      42      65      57      50      56      54      50
      44      53      47      47      52      50      47      42      42      47
      48      45      45      41      36      58      49      46      48      33
      40      35      53      44      37      42      47      48      46      62
      59      33      49      44      44      44      42      47      37      41
      37      46      48      54      41      44      57      46      36      49
      39      41      38      47      51      31      39      57      47      53
      49      49      59      48      63      49      53      54      43      39
      40      52      40      57      49      42      40      48      44      53
      43      45      49      56      40      45      44      46      47      41
      40      48      40      44      42      41      43      44      40      47
      35      48      33      40      35      50      43      57      41      39
      42      42      33      39      39      53      46      37      38      40
      37      42      42      56      43      37      38      36      44      29
      39      50      55      51      54      34      50      45      35      37
      43      42      43      42      42      45      41      34      44      50
      39      41      41      41      36      33      46      46      46      39
      49      48      50      40      51      36      50      53      39      38
      46      24      40      45      40      34      40      44      28      38
      42      41      44      33      42      47      40      42      33      46
      27      36      28      39      47      40      37      35      42      46
      40      39      45      33      43      41      38      34      29      45
      32      42      39      39      43      35      35      43      31      28
      45      47      41      35      46      36      46      30      31      41
      48      41      34      41      37      47      42      41      33      25
      37      27      35      42      34      42      32      38      34      41
      44      56      36      42      32      37      21      44      36      41
      40      44      35      37      38      43      40      39      39      40
      42      39      34      48      39      40      43      50      33      45
      37      33      29      41      35      40      38      30      40      39
      28      36      38      51      36      40      41      36      31      39
      40      33      46      30      42      40      36      36      30      35
      37      34      44      36      36      42      43      35      42      39
      42      36      37      38      38      33      31      41      34      42
      31      31      43      35      36      42      37      24      38      37
      43      37      43      35      35      42      29      33      36      37
      36      29      41      28      35      38      31      36      38      35
      47      30      38      21      29      35      29      39      44      29
      35      33      41      32      43      35      35      41      35      46
      31      40      31      28      21      36      31      29      29      40
      37      34      27      33      37      26      35      43      35      19
      34      27      44      42      29      43      35      45      30      31
      33      32      29      33      20      34      32      23      34      30
      29      45      31      34      24      30      34      33      29      25
      23      30      27      30      34      41      26      28      33      39
      36      33      39      28      39      33      31      34      36      38
      39      32      26      50      36      34      35      18      35      30
      23      26      25      29      29      36      30      35      30      39
      34      27      38      30      31      23      24      31      36      30
      37      40      40      29      24      27      26      35      22      38
      35      36      34      31      32      32      38      33      38      30
      37      48      29      23      33      29      32      45      39      27
      24      31      39      30      29      46      34      36      37      35
      35      31      28      31      33      23      35      36      29      42
      43      39      30      42      35      28      31      27      34      33
      29      32      30      36      26      30      34      40      38      37
      34      23      23      33      35      33      24      21      26      31
      32      22      29      33      35      30      31      30      26      22
      39      35      29      32      31      33      33      35      44      33
      28      35      27      26      39      40      45      29      34      32
      36      32      39      29      34      33      34      21      45      39
      30      24      26      26      23      29      33      33      30      30
      26      25      49      32      27      25      31      31      34      27
      24      37      23      36      28      30      35      32      38      33
      37      36      38      36      25      29      31      36      35      27
      32      20      32      21      17      14      25      32      23      31
      36      26      23      29      28      14      26      24      34      34
      27      29      30      33      28      25      28      30      36      22
      24      18      27      28      32      25      32      29      29      35
      21      37      28      28      33      25      35      22      29      32
      23      25      26      31      22      31      27      34      21      33
      32      26      34      27      36      40      32      33      29      23
      27      32      27      22      27      29      26      38      28      28
      27      34      37      32      21      29      26      21      22      27
      32      24      26      25      18      21      25      27      21      28
      23      32      36      24      22      31      28      32      21      27
      34      31      29      21      35      17      29      32      27      26
      31      29      32      40      22      22      22      33      26      25
      19      33      25      27      25      23      18      26      28      25
      19      27      24      23      25      24      25      31      28      27
      30      33      26      35      21      27      22      18      25      34
      25      31      25      35      40      13      35      23      26      25
      16      16      27      32      22      22      28      35      23      22
      34      24      30      32      20      27      26      28      28      28
      22      24      25      25      33      25      25      32      35      16
      24      20      29      30      27      32      19      32      19      24
      29      23      27      32      19      24      25      33      33      34
      29      28      17      19      28      26      32      22      24      16
      28      29      31      21      24      25      30      20      25      21
      19      29      27      25      23      19      23      32      21      22
      24      26      27      21      23      26      26      27      20      16
      28      28      34      17      27      31      24      29      30      25
      43      27      20      18      23      25      28      32      28      26
      27      21      22      25      20      23      21      32      30      16
      24      20      21      28      28      22      23      26      18      24
      23      20      24      22      25      31      27      21      17      24
      24      13      34      25      23      26      21      36      23      27
      27      23      24      21      32      16      31      23      19      30
      24      27      26      21      33      25      22      17      31      23
      42      30      28      30      26      28      20      19      19      16
      24      19      27      24      28      24      24      31      22      22
      23      32      16      16      18      23      32      24      27      27
      29      13      27      20      24      18      22      30      28      20
      20      24      28      22      22      20      27      18      22      23
      32      25      17      30      21      25      17      26      17      25
      23      16      30      16      26      17      27      19      20      20
      27      30      21      19      31      29      19      17      25      16
      31      13      15      21      22      24      17      25      22      31
      25      27      18      25      26      21      27      16      19      18
      21      23      27      26      25      20      20      20      24      20
      21      30      23      20      37      30      19      21      32      34
      21      27      17      26      29      20      18      19      19      21
